DATE,OPEN,HIGH,LOW,CLOSE,52W H,52W L,SYMBOL
2025-10-23,29.42,30.0,29.42,29.89,44.78,14.5,RAMANEWS
2025-10-21,30.2,31.0,29.0,29.82,44.78,14.5,RAMANEWS
2025-10-20,29.11,30.5,29.11,29.9,44.78,14.5,RAMANEWS
2025-10-17,30.53,30.9,29.4,29.71,44.78,14.5,RAMANEWS
2025-10-16,30.05,33.02,30.05,30.94,44.78,14.5,RAMANEWS
2025-10-15,29.75,30.91,29.63,29.91,44.78,14.5,RAMANEWS
2025-10-14,30.87,31.0,29.85,30.22,44.78,14.5,RAMANEWS
2025-10-13,31.01,31.51,30.01,30.18,44.78,14.5,RAMANEWS
2025-10-10,31.2,32.6,31.2,31.49,44.78,14.5,RAMANEWS
2025-10-09,31.52,33.43,31.01,31.92,44.78,14.5,RAMANEWS
2025-10-08,32.98,33.0,31.0,31.57,44.78,14.5,RAMANEWS
2025-10-07,32.1,33.0,32.01,32.26,44.78,14.5,RAMANEWS
2025-10-06,32.51,33.79,32.5,32.52,44.78,14.5,RAMANEWS
2025-10-03,29.5,33.5,29.5,33.1,44.78,14.5,RAMANEWS
2025-10-01,30.1,31.09,29.2,30.55,44.78,14.5,RAMANEWS
2025-09-30,30.55,31.95,30.55,30.96,44.78,14.5,RAMANEWS
2025-09-29,30.55,33.0,30.55,30.93,44.78,14.5,RAMANEWS
2025-09-26,32.03,33.03,31.2,31.38,44.78,14.5,RAMANEWS
2025-09-25,33.01,33.06,31.3,32.03,44.78,14.5,RAMANEWS
2025-09-24,33.5,33.9,32.0,32.2,44.78,14.5,RAMANEWS
2025-09-23,33.0,34.6,32.49,32.86,44.78,14.5,RAMANEWS
2025-09-22,35.45,35.45,33.01,33.13,44.78,14.5,RAMANEWS
2025-09-19,34.49,35.95,33.0,34.79,44.78,14.5,RAMANEWS
2025-09-18,32.8,36.18,32.26,34.5,44.78,14.5,RAMANEWS
2025-09-17,35.0,35.0,32.2,32.85,44.78,14.5,RAMANEWS
2025-09-16,34.0,35.99,33.6,34.87,44.78,14.5,RAMANEWS
2025-09-15,32.5,37.23,32.5,33.97,44.78,14.5,RAMANEWS
2025-02-24,32.0,36.26,31.3,36.26,36.26,14.4,RAMANEWS
2025-02-21,27.8,31.2,27.5,30.22,31.2,14.4,RAMANEWS
2025-02-20,25.5,29.0,25.07,27.13,29.0,14.4,RAMANEWS
2025-02-19,23.29,27.0,23.01,25.26,27.0,14.4,RAMANEWS
2025-02-18,23.49,23.49,22.0,22.95,25.35,14.4,RAMANEWS
2025-02-17,22.95,23.25,22.0,22.52,25.35,14.4,RAMANEWS
2025-02-14,23.4,23.4,21.92,22.43,25.35,14.4,RAMANEWS
2025-02-13,22.18,23.5,21.2,22.61,25.35,14.4,RAMANEWS
2025-02-12,20.48,22.69,20.36,22.22,25.35,14.4,RAMANEWS
2025-02-11,19.97,20.6,19.0,20.28,25.35,14.4,RAMANEWS
2025-02-10,20.0,20.0,19.0,19.35,25.35,14.4,RAMANEWS
2025-02-07,20.0,20.39,19.11,19.5,25.35,14.4,RAMANEWS
2025-02-06,19.65,20.8,18.5,20.43,25.35,14.4,RAMANEWS
2025-02-05,20.0,20.0,19.0,19.24,25.35,14.4,RAMANEWS
2025-02-04,19.98,20.25,19.5,19.9,25.35,14.4,RAMANEWS
2025-02-03,20.06,20.06,19.5,19.62,25.35,14.4,RAMANEWS
2025-02-01,19.49,21.2,18.53,20.07,25.35,14.4,RAMANEWS
2025-01-31,18.25,20.05,17.85,19.48,25.35,14.4,RAMANEWS
2025-01-30,16.0,18.2,16.0,17.83,25.35,14.4,RAMANEWS
2025-01-29,15.65,16.4,15.46,16.08,25.35,14.4,RAMANEWS
2025-01-28,14.8,15.95,14.5,15.39,25.35,14.4,RAMANEWS
2025-01-27,15.14,15.14,14.5,14.54,25.35,14.4,RAMANEWS
2025-01-24,16.86,16.86,14.6,15.14,25.35,14.4,RAMANEWS
2025-01-23,16.55,17.5,16.3,16.56,25.35,14.4,RAMANEWS
2025-01-22,16.52,16.87,16.25,16.59,25.35,14.4,RAMANEWS
2025-01-21,17.06,17.19,16.48,16.51,25.35,14.4,RAMANEWS
2025-01-20,17.19,17.19,16.89,17.06,25.35,14.4,RAMANEWS
2025-01-17,17.01,17.45,16.5,16.88,25.35,14.4,RAMANEWS
2025-01-16,17.39,17.39,17.0,17.19,25.35,14.4,RAMANEWS
2025-01-15,16.78,17.38,16.78,17.1,25.35,14.4,RAMANEWS
2025-01-14,17.08,17.28,16.71,17.01,25.35,14.4,RAMANEWS
2025-01-13,17.0,17.6,16.25,16.89,25.35,14.4,RAMANEWS
2025-01-10,18.49,18.49,17.0,17.2,25.35,14.4,RAMANEWS
2025-01-09,18.03,18.54,17.5,18.06,25.35,14.4,RAMANEWS
2025-01-08,18.3,18.3,18.0,18.01,25.35,14.4,RAMANEWS
2025-01-07,17.57,18.15,17.57,18.01,25.35,14.4,RAMANEWS
2025-01-06,18.17,18.39,17.38,17.44,25.35,14.4,RAMANEWS
2025-01-03,18.44,18.99,18.17,18.3,25.35,14.4,RAMANEWS
2025-01-02,18.48,18.68,18.18,18.52,25.35,14.4,RAMANEWS
2025-01-01,18.2,18.79,18.11,18.18,25.35,14.4,RAMANEWS
2024-12-31,17.36,18.97,17.35,18.18,25.35,14.4,RAMANEWS
2024-12-30,17.53,17.92,17.53,17.63,25.35,14.4,RAMANEWS
2024-12-27,17.55,17.99,17.55,17.83,25.35,14.4,RAMANEWS
2024-12-26,17.52,18.08,17.52,17.78,25.35,14.4,RAMANEWS
2024-12-24,18.05,18.3,17.31,17.97,25.35,14.4,RAMANEWS
2024-12-23,18.75,18.93,18.1,18.16,25.35,14.4,RAMANEWS
2024-12-20,18.99,19.1,18.71,18.75,25.35,14.4,RAMANEWS
2024-12-19,18.68,19.03,18.46,18.81,25.35,14.4,RAMANEWS
2024-12-18,18.7,19.43,18.6,18.68,25.35,14.4,RAMANEWS
2024-12-17,19.0,19.64,18.76,18.95,25.35,14.4,RAMANEWS
2024-12-16,18.83,20.13,18.83,19.56,25.35,14.4,RAMANEWS
2024-12-13,19.21,19.48,18.74,19.0,25.35,14.4,RAMANEWS
2024-12-12,19.5,19.5,19.07,19.21,25.35,14.4,RAMANEWS
2024-12-11,19.7,19.74,19.25,19.3,25.35,14.4,RAMANEWS
2024-12-10,19.89,19.93,19.3,19.56,25.35,14.4,RAMANEWS
2024-12-09,19.15,20.75,19.15,19.7,25.35,14.4,RAMANEWS
2024-12-06,19.49,19.6,18.95,19.15,25.35,14.4,RAMANEWS
2024-12-05,19.0,19.55,18.7,19.34,25.35,14.4,RAMANEWS
2024-12-04,18.64,20.0,18.61,19.0,25.35,14.4,RAMANEWS
2024-12-03,18.96,19.21,18.71,18.99,25.35,14.4,RAMANEWS
2024-12-02,18.3,19.34,18.01,18.86,25.35,14.4,RAMANEWS
2024-11-29,17.98,18.4,17.66,17.89,25.35,14.4,RAMANEWS
2024-11-28,17.69,18.1,17.31,17.72,25.35,14.4,RAMANEWS
2024-11-27,17.44,17.59,17.16,17.33,25.35,14.4,RAMANEWS
2024-11-26,17.49,17.55,16.2,17.15,25.35,14.4,RAMANEWS
2024-11-25,16.99,17.55,16.99,17.15,25.35,14.4,RAMANEWS
2024-11-22,16.6,16.84,16.37,16.71,25.35,14.4,RAMANEWS
2024-11-21,16.8,17.12,16.2,16.33,25.35,14.4,RAMANEWS
2024-11-19,17.23,17.64,16.77,16.96,25.35,14.4,RAMANEWS
2024-11-18,17.58,17.7,16.62,16.92,25.35,14.4,RAMANEWS
2024-11-14,17.58,17.72,17.3,17.58,25.35,14.4,RAMANEWS
2024-11-13,18.22,18.22,17.11,17.23,25.35,14.4,RAMANEWS
2024-11-12,19.24,19.24,18.0,18.23,25.35,14.4,RAMANEWS
2024-11-11,19.15,19.3,18.9,19.08,25.35,14.4,RAMANEWS
2024-11-08,19.19,19.19,18.6,18.77,25.35,14.0,RAMANEWS
2024-11-07,19.48,19.51,18.92,19.09,25.35,14.0,RAMANEWS
2024-11-06,19.4,19.69,18.86,19.47,25.35,14.0,RAMANEWS
2024-11-05,19.26,19.96,19.26,19.38,25.35,14.0,RAMANEWS
2024-11-04,19.05,20.1,18.89,19.21,25.35,14.0,RAMANEWS
2024-11-01,18.48,18.77,18.02,18.62,25.35,13.6,RAMANEWS
2024-10-31,17.41,18.5,17.41,17.96,25.35,13.6,RAMANEWS
2024-10-30,17.45,17.95,17.09,17.71,25.35,13.6,RAMANEWS
2024-10-29,17.79,17.79,16.91,17.09,25.35,13.6,RAMANEWS
2024-10-28,17.1,17.87,17.1,17.23,25.35,13.6,RAMANEWS
2024-10-25,17.84,17.85,17.25,17.4,25.35,13.25,RAMANEWS
2024-10-24,17.33,17.98,17.12,17.84,25.35,13.25,RAMANEWS
2024-10-23,18.0,18.39,17.22,17.52,25.35,13.25,RAMANEWS
2024-10-22,18.75,18.91,18.01,18.05,25.35,13.25,RAMANEWS
2024-10-21,19.44,19.44,18.7,18.72,25.35,13.25,RAMANEWS
2024-10-18,18.82,19.19,18.65,19.06,25.35,13.25,RAMANEWS
2024-10-17,19.27,19.47,18.8,18.94,25.35,13.25,RAMANEWS
2024-10-16,19.75,19.75,19.0,19.27,25.35,13.25,RAMANEWS
2024-10-15,19.55,20.0,19.52,19.58,25.35,13.25,RAMANEWS
2024-10-14,20.25,20.25,19.65,19.88,25.35,13.25,RAMANEWS
2024-10-11,20.44,20.59,19.82,19.92,25.35,13.25,RAMANEWS
2024-10-10,20.44,20.89,20.15,20.31,25.35,13.25,RAMANEWS
2024-10-09,19.66,20.66,19.31,20.28,25.35,13.25,RAMANEWS
2024-10-08,19.0,19.68,18.69,19.28,25.35,13.25,RAMANEWS
2024-10-07,19.87,19.87,18.61,18.77,25.35,13.25,RAMANEWS
2024-10-04,20.19,20.49,19.45,19.61,25.35,13.25,RAMANEWS
2024-10-03,20.98,20.98,20.11,20.19,25.35,13.25,RAMANEWS
2024-10-01,20.28,21.0,20.05,20.71,25.35,13.25,RAMANEWS
2024-09-30,20.16,20.6,20.0,20.15,25.35,13.25,RAMANEWS
2024-09-27,20.64,20.64,20.02,20.16,25.35,13.25,RAMANEWS
2024-09-26,20.28,20.49,19.99,20.19,25.35,13.25,RAMANEWS
2024-09-25,20.98,20.99,19.97,20.02,25.35,13.25,RAMANEWS
2024-09-24,20.96,21.45,20.65,20.87,25.35,13.25,RAMANEWS
2024-09-23,21.1,21.1,20.85,20.91,25.35,13.25,RAMANEWS
2024-09-20,20.99,21.4,20.68,21.09,25.35,13.25,RAMANEWS
2024-09-19,21.43,21.44,20.45,20.53,25.35,13.25,RAMANEWS
2024-09-18,21.96,21.96,20.8,21.15,25.35,13.25,RAMANEWS
2024-09-17,21.5,22.0,21.5,21.78,25.35,13.25,RAMANEWS
2024-09-16,22.38,22.4,21.81,21.83,25.35,13.25,RAMANEWS
2024-09-13,21.88,22.5,21.6,21.96,25.35,13.25,RAMANEWS
2024-09-12,22.07,22.3,21.45,21.56,25.35,13.25,RAMANEWS
2024-09-11,21.95,22.47,21.95,22.03,25.35,13.25,RAMANEWS
2024-09-10,21.73,22.29,21.73,21.95,25.35,13.25,RAMANEWS
2024-09-09,21.96,22.22,21.52,21.79,25.35,13.25,RAMANEWS
2024-09-06,22.17,22.49,21.55,21.97,25.35,13.0,RAMANEWS
2024-09-05,22.0,22.74,21.85,21.98,25.35,13.0,RAMANEWS
2024-09-04,21.62,22.48,21.62,22.01,25.35,13.0,RAMANEWS
2024-09-03,22.54,22.81,22.0,22.58,25.35,13.0,RAMANEWS
2024-09-02,21.3,22.74,20.85,22.14,25.35,13.0,RAMANEWS
2024-08-30,20.93,21.44,20.06,20.98,25.35,12.9,RAMANEWS
2024-08-29,21.19,21.8,20.65,20.73,25.35,12.9,RAMANEWS
2024-08-28,21.68,21.99,20.82,20.98,25.35,12.9,RAMANEWS
2024-08-27,22.88,22.88,21.02,21.53,25.35,12.9,RAMANEWS
2024-08-26,22.7,23.45,22.1,22.64,25.35,12.9,RAMANEWS
2024-08-23,22.6,23.49,21.9,22.25,25.35,12.9,RAMANEWS
2024-08-22,23.37,23.9,22.51,22.61,25.35,12.9,RAMANEWS
2024-08-21,23.5,24.84,22.8,23.04,25.35,12.9,RAMANEWS
2024-08-20,25.0,25.35,21.74,23.53,25.35,12.9,RAMANEWS
2024-08-19,20.34,22.8,19.84,22.39,24.35,12.9,RAMANEWS
2024-08-16,19.95,20.44,19.95,20.11,24.35,12.6,RAMANEWS
2024-08-14,20.37,20.59,19.81,19.94,24.35,12.6,RAMANEWS
2024-08-13,21.78,21.78,20.2,20.31,24.35,12.6,RAMANEWS
2024-08-12,21.99,22.4,21.23,21.38,24.35,12.6,RAMANEWS
2024-08-09,20.53,22.78,20.2,21.83,24.35,12.1,RAMANEWS
2024-08-08,20.05,20.86,20.0,20.12,24.35,12.1,RAMANEWS
2024-08-07,19.67,21.45,19.02,20.3,24.35,12.1,RAMANEWS
2024-08-06,20.25,20.39,19.11,19.4,24.35,12.1,RAMANEWS
2024-08-05,20.52,20.52,19.39,19.85,24.35,12.1,RAMANEWS
2024-08-02,20.5,20.96,19.86,20.77,24.35,12.1,RAMANEWS
2024-08-01,21.39,21.39,20.25,20.46,24.35,12.1,RAMANEWS
2024-07-31,21.0,21.43,20.7,20.83,24.35,12.1,RAMANEWS
2024-07-30,20.52,21.65,20.52,21.13,24.35,12.1,RAMANEWS
2024-07-29,21.06,21.46,20.61,20.96,24.35,12.1,RAMANEWS
2024-07-26,21.74,22.19,21.12,21.25,24.35,12.1,RAMANEWS
2024-07-25,21.5,23.27,21.05,21.74,24.35,12.1,RAMANEWS
2024-07-24,19.52,21.72,19.52,21.6,24.35,12.1,RAMANEWS
2024-07-23,19.85,20.24,19.0,19.75,24.35,12.1,RAMANEWS
2024-07-22,19.95,20.07,19.8,19.84,24.35,12.1,RAMANEWS
2024-07-19,20.67,20.7,19.81,20.07,24.35,12.1,RAMANEWS
2024-07-18,20.32,21.25,19.81,20.47,24.35,12.1,RAMANEWS
2024-07-16,20.97,20.97,20.12,20.27,24.35,12.1,RAMANEWS
2024-07-15,21.47,21.47,20.58,20.73,24.35,12.1,RAMANEWS
2024-07-12,20.25,21.4,20.25,21.1,24.35,12.1,RAMANEWS
2024-07-11,20.95,20.95,20.3,20.34,24.35,12.1,RAMANEWS
2024-07-10,21.23,21.23,20.3,20.62,24.35,12.1,RAMANEWS
2024-07-09,21.24,21.99,20.95,20.97,24.35,12.1,RAMANEWS
2024-07-08,21.44,21.92,20.5,21.02,24.35,12.1,RAMANEWS
2024-07-05,20.7,21.8,20.1,21.02,24.35,12.1,RAMANEWS
2024-07-04,20.8,21.18,20.15,20.28,24.35,12.1,RAMANEWS
2024-07-03,21.48,21.79,20.9,20.93,24.35,12.1,RAMANEWS
2024-07-02,20.51,21.8,20.02,21.16,24.35,12.1,RAMANEWS
2024-07-01,19.74,20.75,19.62,20.5,24.35,12.1,RAMANEWS
2024-06-28,19.79,19.79,19.17,19.61,24.35,12.1,RAMANEWS
2024-06-27,19.53,19.64,19.36,19.57,24.35,12.1,RAMANEWS
2024-06-26,19.3,19.87,19.0,19.53,24.35,12.1,RAMANEWS
2024-06-25,19.49,19.9,19.26,19.32,24.35,12.1,RAMANEWS
2024-06-24,19.65,20.14,19.4,19.46,24.35,12.1,RAMANEWS
2024-06-21,19.3,19.53,19.05,19.46,24.35,12.1,RAMANEWS
2024-06-20,19.38,19.58,19.0,19.09,24.35,12.1,RAMANEWS
2024-06-19,19.85,19.85,19.01,19.18,24.35,12.1,RAMANEWS
2024-06-18,20.05,20.49,19.5,19.63,24.35,12.1,RAMANEWS
2024-06-14,19.95,20.9,19.88,20.02,24.35,12.1,RAMANEWS
2024-06-13,20.28,20.28,19.85,19.91,24.35,12.1,RAMANEWS
2024-06-12,20.25,20.5,19.56,19.97,24.35,12.1,RAMANEWS
2024-06-11,20.38,20.8,19.87,20.21,24.35,12.1,RAMANEWS
2024-06-10,20.9,20.9,20.01,20.21,24.35,12.1,RAMANEWS
2024-06-07,19.9,21.5,19.4,20.0,24.35,12.1,RAMANEWS
2024-06-06,18.45,19.85,18.35,19.55,24.35,12.1,RAMANEWS
2024-06-05,18.35,18.9,17.5,18.3,24.35,12.1,RAMANEWS
2024-06-04,20.15,20.15,17.85,18.35,24.35,12.1,RAMANEWS
2024-06-03,19.75,20.45,19.65,19.8,24.35,12.1,RAMANEWS
2024-05-31,20.0,20.3,19.55,19.7,24.35,12.1,RAMANEWS
2024-05-30,20.95,21.1,19.65,20.1,24.35,12.1,RAMANEWS
2024-05-29,19.7,21.1,19.7,20.7,24.35,12.1,RAMANEWS
2024-05-28,20.0,20.45,19.85,19.9,24.35,12.1,RAMANEWS
2024-05-27,20.6,20.9,20.1,20.25,24.35,12.1,RAMANEWS
2024-05-24,20.95,21.05,20.3,20.55,24.35,12.1,RAMANEWS
2024-05-23,21.05,21.35,20.6,20.7,24.35,12.1,RAMANEWS
2024-05-22,21.4,21.45,20.7,21.0,24.35,12.1,RAMANEWS
2024-05-21,21.0,22.0,20.5,21.25,24.35,12.1,RAMANEWS
2024-05-18,21.45,21.85,21.0,21.4,24.35,12.1,RAMANEWS
2024-05-17,20.6,22.2,20.6,21.45,24.35,12.1,RAMANEWS
2024-05-16,21.9,21.9,21.0,21.05,24.35,12.1,RAMANEWS
2024-05-15,21.75,22.25,21.0,21.5,24.35,12.1,RAMANEWS
2024-05-14,19.8,22.05,19.7,21.55,24.35,12.1,RAMANEWS
2024-05-13,20.6,20.85,19.6,20.2,24.35,12.1,RAMANEWS
2024-05-10,20.4,20.85,20.15,20.6,24.35,12.1,RAMANEWS
2024-05-09,22.2,22.25,20.15,20.8,24.35,12.1,RAMANEWS
2024-05-08,22.5,22.7,21.95,22.05,24.35,12.1,RAMANEWS
2024-05-07,23.0,23.0,21.8,22.1,24.35,12.1,RAMANEWS
2024-05-06,22.75,22.85,22.15,22.45,24.35,12.1,RAMANEWS
2024-05-03,22.95,23.0,22.4,22.6,24.35,12.1,RAMANEWS
2024-05-02,22.35,23.25,21.15,22.9,24.35,12.1,RAMANEWS
2024-04-30,22.0,22.7,21.65,22.05,24.35,12.1,RAMANEWS
2024-04-29,21.95,21.95,21.5,21.7,24.35,12.1,RAMANEWS
2024-04-26,21.35,21.8,21.35,21.6,24.35,11.95,RAMANEWS
2024-04-25,22.25,22.25,21.0,21.35,24.35,11.95,RAMANEWS
2024-04-24,22.0,22.5,21.9,22.0,24.35,11.95,RAMANEWS
2024-04-23,22.05,22.9,21.8,22.05,24.35,11.95,RAMANEWS
2024-04-22,23.05,23.2,21.6,22.45,24.35,11.95,RAMANEWS
2024-04-19,22.0,22.25,20.9,22.1,24.35,11.95,RAMANEWS
2024-04-18,21.4,23.1,21.15,22.15,24.35,11.95,RAMANEWS
2024-04-16,19.1,21.0,18.5,21.0,24.35,11.95,RAMANEWS
2024-04-15,17.8,19.3,17.3,19.1,24.35,11.95,RAMANEWS
2024-04-12,19.05,19.9,18.3,18.9,24.35,11.5,RAMANEWS
2024-04-10,19.55,20.2,19.2,19.35,24.35,11.5,RAMANEWS
2024-04-09,19.95,20.9,19.4,19.5,24.35,11.5,RAMANEWS
2024-04-08,21.55,21.55,19.6,19.75,24.35,11.5,RAMANEWS
2024-04-05,19.55,21.25,18.8,20.85,24.35,11.15,RAMANEWS
2024-04-04,17.95,20.2,17.1,19.55,24.35,11.15,RAMANEWS
2024-04-03,16.95,17.6,16.55,17.3,24.35,11.15,RAMANEWS
2024-04-02,16.05,16.75,15.8,16.6,24.35,11.15,RAMANEWS
2024-04-01,14.5,16.2,14.4,16.1,24.35,11.15,RAMANEWS
2024-03-28,15.0,15.45,14.55,14.65,24.35,10.35,RAMANEWS
2024-03-27,15.4,15.75,14.5,14.8,24.35,10.35,RAMANEWS
2024-03-26,16.0,16.15,15.4,15.5,24.35,10.35,RAMANEWS
2024-03-22,16.05,16.15,15.6,15.75,24.35,10.35,RAMANEWS
2024-03-21,15.0,16.5,14.95,16.05,24.35,10.35,RAMANEWS
2024-03-20,15.25,15.65,14.55,14.9,24.35,10.35,RAMANEWS
2024-03-19,15.65,16.1,15.15,15.35,24.35,10.35,RAMANEWS
2024-03-18,15.65,16.3,15.6,15.95,24.35,10.35,RAMANEWS
2024-03-15,15.9,16.3,15.55,15.9,24.35,10.35,RAMANEWS
2024-03-14,15.3,16.15,14.8,15.75,24.35,10.35,RAMANEWS
2024-03-13,16.6,17.05,15.2,15.4,24.35,10.35,RAMANEWS
2024-03-12,18.15,18.25,16.6,16.85,24.35,10.35,RAMANEWS
2024-03-11,18.95,18.95,17.9,18.2,24.35,10.35,RAMANEWS
2024-03-07,18.6,19.2,18.6,18.75,24.35,10.35,RAMANEWS
2024-03-06,19.5,19.6,18.35,18.85,24.35,10.35,RAMANEWS
2024-03-05,19.6,20.7,19.15,19.4,24.35,10.35,RAMANEWS
2024-03-04,19.3,20.5,18.6,19.6,24.35,10.35,RAMANEWS
2024-03-02,19.4,19.8,19.0,19.3,24.35,10.35,RAMANEWS
2024-03-01,18.55,19.35,18.3,19.15,24.35,10.35,RAMANEWS
2024-02-29,18.3,18.5,17.95,18.35,24.35,10.35,RAMANEWS
2024-02-28,19.0,19.3,17.9,18.3,24.35,10.35,RAMANEWS
2024-02-27,19.35,19.95,18.55,18.9,24.35,10.35,RAMANEWS
2024-02-26,20.0,20.1,19.0,19.2,24.35,10.35,RAMANEWS
2024-02-23,20.5,20.7,19.8,19.9,24.35,10.35,RAMANEWS
2024-02-22,19.9,20.85,19.2,20.35,24.35,10.35,RAMANEWS
2024-02-21,20.25,21.0,19.45,19.7,24.35,10.35,RAMANEWS
2024-02-20,20.7,21.15,20.0,20.15,24.35,10.35,RAMANEWS
2024-02-19,21.65,21.65,20.6,20.7,24.35,10.35,RAMANEWS
2024-02-16,21.05,21.7,20.85,21.25,24.35,10.35,RAMANEWS
2024-02-15,20.85,21.2,20.45,20.7,24.35,10.35,RAMANEWS
2024-02-14,18.85,20.4,18.85,20.25,24.35,10.35,RAMANEWS
2024-02-13,19.05,20.15,18.7,19.25,24.35,10.35,RAMANEWS
2024-02-12,22.0,22.4,19.3,19.65,24.35,10.35,RAMANEWS
2024-02-09,24.0,24.0,21.0,21.95,24.35,10.35,RAMANEWS
2024-02-08,23.7,23.9,22.4,23.35,24.35,10.35,RAMANEWS
2024-02-07,21.9,24.35,20.5,23.05,24.35,10.35,RAMANEWS
2024-02-06,18.45,21.75,18.0,21.75,21.75,10.35,RAMANEWS
2024-02-05,18.7,19.35,18.0,18.15,20.8,10.35,RAMANEWS
2024-02-02,18.85,19.2,18.4,18.5,20.8,10.35,RAMANEWS
2024-02-01,19.25,19.4,18.5,18.65,20.8,10.35,RAMANEWS
2024-01-31,19.3,19.8,18.85,18.95,20.8,10.35,RAMANEWS
2024-01-30,18.8,19.9,18.1,19.3,20.8,10.35,RAMANEWS
2024-01-29,18.85,19.35,18.35,18.55,20.8,10.35,RAMANEWS
2024-01-25,18.05,18.95,18.0,18.55,20.8,10.35,RAMANEWS
2024-01-24,18.3,18.6,17.7,17.9,20.8,10.35,RAMANEWS
2024-01-23,19.5,19.75,17.9,18.25,20.8,10.35,RAMANEWS
2024-01-20,20.0,20.1,19.4,19.5,20.8,10.35,RAMANEWS
2024-01-19,19.4,20.4,19.15,19.75,20.8,10.35,RAMANEWS
2024-01-18,19.05,19.8,18.4,19.2,20.8,10.35,RAMANEWS
2024-01-17,19.55,19.8,18.85,19.15,20.8,10.35,RAMANEWS
2024-01-16,20.55,20.6,19.0,19.55,20.8,10.35,RAMANEWS
2024-01-15,19.45,20.55,19.3,19.95,20.8,10.35,RAMANEWS
2024-01-12,19.7,20.4,19.2,19.35,20.8,10.35,RAMANEWS
2024-01-11,19.95,20.2,19.45,19.7,20.8,10.35,RAMANEWS
2024-01-10,20.05,20.45,19.8,19.95,20.8,10.35,RAMANEWS
2024-01-09,19.8,20.7,19.25,20.35,20.8,10.35,RAMANEWS
2024-01-08,19.25,20.2,19.05,19.65,20.8,10.35,RAMANEWS
2024-01-05,19.6,19.8,18.4,19.25,20.8,10.35,RAMANEWS
2024-01-04,19.9,20.2,19.45,19.55,20.8,10.35,RAMANEWS
2024-01-03,20.45,20.7,19.6,19.85,20.8,10.35,RAMANEWS
2024-01-02,18.75,20.8,18.45,20.25,20.8,10.35,RAMANEWS
2024-01-01,17.7,19.05,17.55,18.3,19.8,10.35,RAMANEWS
2023-12-29,16.8,17.95,16.75,17.5,19.8,10.35,RAMANEWS
2023-12-28,17.6,17.7,16.5,16.65,19.8,10.35,RAMANEWS
2023-12-27,18.25,18.7,17.3,17.5,19.8,10.35,RAMANEWS
2023-12-26,18.6,18.85,17.75,18.2,19.8,10.35,RAMANEWS
2023-12-22,19.35,19.35,18.15,18.35,19.8,10.35,RAMANEWS
2023-12-21,18.4,19.3,17.6,18.95,19.8,10.35,RAMANEWS
2023-12-20,18.7,19.8,17.9,18.15,19.8,10.35,RAMANEWS
2023-12-19,19.6,19.8,18.05,18.95,19.8,10.35,RAMANEWS
2023-12-18,16.25,19.4,16.25,18.9,19.4,10.35,RAMANEWS
2023-12-15,16.5,16.5,16.15,16.2,18.55,10.35,RAMANEWS
2023-12-14,16.5,16.8,16.15,16.35,18.55,10.35,RAMANEWS
2023-12-13,16.6,16.75,16.2,16.4,18.55,10.35,RAMANEWS
2023-12-12,16.75,16.95,16.35,16.45,18.55,10.35,RAMANEWS
2023-12-11,17.0,17.0,16.45,16.55,18.55,10.35,RAMANEWS
2023-12-08,17.35,17.35,16.65,16.75,18.55,10.35,RAMANEWS
2023-12-07,17.2,17.65,16.5,17.1,18.55,10.35,RAMANEWS
2023-12-06,16.4,17.6,16.35,17.0,18.55,10.35,RAMANEWS
2023-12-05,16.3,16.35,15.75,16.05,18.55,10.35,RAMANEWS
2023-12-04,16.5,16.5,16.05,16.15,18.55,10.35,RAMANEWS
2023-12-01,16.2,16.5,15.9,16.15,18.55,10.35,RAMANEWS
2023-11-30,16.6,16.75,15.8,15.95,18.55,10.35,RAMANEWS
2023-11-29,17.0,17.0,16.5,16.55,18.55,10.35,RAMANEWS
2023-11-28,17.45,17.5,16.6,16.75,18.55,10.35,RAMANEWS
2023-11-24,16.9,17.3,16.8,17.05,18.55,10.35,RAMANEWS
2023-11-23,16.7,17.15,16.5,16.7,18.55,10.35,RAMANEWS
2023-11-22,18.15,18.15,16.4,16.7,18.55,10.35,RAMANEWS
2023-11-21,17.75,18.2,17.3,17.95,18.55,10.35,RAMANEWS
2023-11-20,15.35,17.8,15.35,16.95,18.55,10.35,RAMANEWS
2023-11-17,15.1,15.75,14.95,15.5,18.55,10.35,RAMANEWS
2023-11-16,15.35,15.45,15.05,15.2,18.55,10.35,RAMANEWS
2023-11-15,15.5,15.75,15.25,15.35,18.55,10.35,RAMANEWS
2023-11-13,15.7,15.8,15.3,15.45,18.55,10.35,RAMANEWS
2023-11-12,15.6,16.2,15.6,15.75,18.55,10.35,RAMANEWS
2023-11-10,14.65,16.2,14.45,15.65,18.55,10.35,RAMANEWS
2023-11-09,14.75,15.05,14.35,14.45,18.55,10.35,RAMANEWS
2023-11-08,14.75,15.05,14.6,14.8,18.55,10.35,RAMANEWS
2023-11-07,14.7,14.7,14.4,14.45,18.55,10.35,RAMANEWS
2023-11-06,14.0,14.7,14.0,14.5,18.55,10.35,RAMANEWS
2023-11-03,14.1,14.4,14.0,14.05,18.55,10.35,RAMANEWS
2023-11-02,13.8,14.2,13.8,13.9,18.55,10.35,RAMANEWS
2023-11-01,14.0,14.1,13.7,13.8,18.55,10.35,RAMANEWS
2023-10-31,13.75,13.95,13.6,13.8,18.55,10.35,RAMANEWS
2023-10-30,13.7,14.1,13.65,13.75,18.55,10.35,RAMANEWS
2023-10-27,13.5,14.1,13.5,13.7,18.55,10.35,RAMANEWS
2023-10-26,13.85,14.1,13.25,13.5,18.55,10.35,RAMANEWS
2023-10-25,14.05,14.55,13.8,14.05,18.55,10.35,RAMANEWS
2023-10-23,15.2,15.2,13.55,13.8,18.55,10.35,RAMANEWS
2023-10-20,15.05,15.4,14.8,15.0,18.55,10.35,RAMANEWS
2023-10-19,15.1,15.2,14.8,14.95,18.55,10.35,RAMANEWS
2023-10-18,15.35,15.5,14.95,15.1,18.55,10.35,RAMANEWS
2023-10-17,15.45,15.7,15.25,15.35,18.55,10.35,RAMANEWS
2023-10-16,15.8,16.0,15.15,15.4,18.55,10.35,RAMANEWS
2023-10-13,16.0,16.0,15.5,15.55,18.55,10.35,RAMANEWS
2023-10-12,16.4,16.4,15.5,15.9,18.55,10.35,RAMANEWS
2023-10-11,14.65,16.3,14.6,16.15,18.55,10.35,RAMANEWS
2023-10-10,14.9,15.05,14.4,14.6,18.55,10.35,RAMANEWS
2023-10-09,15.05,15.15,14.6,14.7,18.55,10.35,RAMANEWS
2023-10-06,14.95,15.25,14.75,15.05,18.55,10.35,RAMANEWS
2023-10-05,14.9,15.0,14.55,14.7,18.55,10.35,RAMANEWS
